Freq.	Vvf
1.00000000000000e+000	2.95365376334817e+001	-1.79997348793561e+002
1.00230523807790e+000	2.95365376336427e+001	-1.79997373973655e+002
1.00461579027840e+000	2.95365376337686e+001	-1.79997399139827e+002
1.00693166885180e+000	2.95365376339263e+001	-1.79997424292209e+002
1.00925288607668e+000	2.95365376340823e+001	-1.79997449430935e+002
1.01157945425990e+000	2.95365376342366e+001	-1.79997474556138e+002
1.01391138573668e+000	2.95365376343893e+001	-1.79997499667951e+002
1.01624869287070e+000	2.95365376345069e+001	-1.79997524766508e+002
1.01859138805412e+000	2.95365376346562e+001	-1.79997549851941e+002
1.02093948370768e+000	2.95365376348039e+001	-1.79997574924384e+002
1.02329299228075e+000	2.95365376349500e+001	-1.79997599983970e+002
1.02565192625141e+000	2.95365376350944e+001	-1.79997625030831e+002
1.02801629812647e+000	2.95365376352038e+001	-1.79997650065100e+002
1.03038612044162e+000	2.95365376353449e+001	-1.79997675086910e+002
1.03276140576140e+000	2.95365376354844e+001	-1.79997700096393e+002
1.03514216667934e+000	2.95365376356223e+001	-1.79997725093682e+002
1.03752841581801e+000	2.95365376357585e+001	-1.79997750078911e+002
1.03992016582906e+000	2.95365376358597e+001	-1.79997775052210e+002
1.04231742939330e+000	2.95365376359927e+001	-1.79997800013713e+002
1.04472021922080e+000	2.95365376361240e+001	-1.79997824963552e+002
1.04712854805090e+000	2.95365376362538e+001	-1.79997849901859e+002
1.04954242865232e+000	2.95365376363485e+001	-1.79997874828766e+002
1.05196187382322e+000	2.95365376364750e+001	-1.79997899744406e+002
1.05438689639126e+000	2.95365376365999e+001	-1.79997924648911e+002
1.05681750921366e+000	2.95365376367232e+001	-1.79997949542412e+002
1.05925372517729e+000	2.95365376368449e+001	-1.79997974425042e+002
1.06169555719872e+000	2.95365376369315e+001	-1.79997999296932e+002
1.06414301822431e+000	2.95365376370500e+001	-1.79998024158215e+002
1.06659612123026e+000	2.95365376371669e+001	-1.79998049009023e+002
1.06905487922266e+000	2.95365376372822e+001	-1.79998073849486e+002
1.07151930523761e+000	2.95365376373625e+001	-1.79998098679737e+002
1.07398941234124e+000	2.95365376374746e+001	-1.79998123499908e+002
1.07646521362983e+000	2.95365376375851e+001	-1.79998148310129e+002
1.07894672222983e+000	2.95365376376940e+001	-1.79998173110533e+002
1.08143395129794e+000	2.95365376378014e+001	-1.79998197901251e+002
1.08392691402120e+000	2.95365376378737e+001	-1.79998222682415e+002
1.08642562361706e+000	2.95365376379779e+001	-1.79998247454155e+002
1.08893009333343e+000	2.95365376380805e+001	-1.79998272216603e+002
1.09144033644876e+000	2.95365376381816e+001	-1.79998296969891e+002
1.09395636627209e+000	2.95365376382476e+001	-1.79998321714150e+002
1.09647819614318e+000	2.95365376383455e+001	-1.79998346449510e+002
1.09900583943252e+000	2.95365376384418e+001	-1.79998371176104e+002
1.10153930954141e+000	2.95365376385366e+001	-1.79998395894062e+002
1.10407861990207e+000	2.95365376385963e+001	-1.79998420603515e+002
1.10662378397766e+000	2.95365376386880e+001	-1.79998445304594e+002
1.10917481526240e+000	2.95365376387781e+001	-1.79998469997430e+002
1.11173172728159e+000	2.95365376388666e+001	-1.79998494682154e+002
1.11429453359173e+000	2.95365376389201e+001	-1.79998519358898e+002
1.11686324778056e+000	2.95365376390055e+001	-1.79998544027791e+002
1.11943788346715e+000	2.95365376390894e+001	-1.79998568688964e+002
1.12201845430196e+000	2.95365376391717e+001	-1.79998593342549e+002
1.12460497396692e+000	2.95365376392190e+001	-1.79998617988677e+002
1.12719745617551e+000	2.95365376392982e+001	-1.79998642627476e+002
1.12979591467280e+000	2.95365376393758e+001	-1.79998667259079e+002
1.13240036323556e+000	2.95365376394520e+001	-1.79998691883616e+002
1.13501081567231e+000	2.95365376394931e+001	-1.79998716501218e+002
1.13762728582343e+000	2.95365376395661e+001	-1.79998741112015e+002
1.14024978756117e+000	2.95365376396376e+001	-1.79998765716137e+002
1.14287833478977e+000	2.95365376396741e+001	-1.79998790313715e+002
1.14551294144553e+000	2.95365376397426e+001	-1.79998814904879e+002
1.14815362149688e+000	2.95365376398094e+001	-1.79998839489760e+002
1.15080038894443e+000	2.95365376398330e+001	-1.79998864068488e+002
1.15345325782109e+000	2.95365376398968e+001	-1.79998888641194e+002
1.15611224219210e+000	2.95365376399591e+001	-1.79998913208007e+002
1.15877735615512e+000	2.95365376400198e+001	-1.79998937769058e+002
1.16144861384034e+000	2.95365376400456e+001	-1.79998962324478e+002
1.16412602941049e+000	2.95365376401033e+001	-1.79998986874396e+002
1.16680961706096e+000	2.95365376401595e+001	-1.79999011418942e+002
1.16949939101987e+000	2.95365376402142e+001	-1.79999035958247e+002
1.17219536554813e+000	2.95365376402338e+001	-1.79999060492440e+002
1.17489755493953e+000	2.95365376402854e+001	-1.79999085021653e+002
1.17760597352080e+000	2.95365376403355e+001	-1.79999109546014e+002
1.18032063565173e+000	2.95365376403506e+001	-1.79999134065654e+002
1.18304155572516e+000	2.95365376403977e+001	-1.79999158580704e+002
1.18576874816716e+000	2.95365376404432e+001	-1.79999183091292e+002
1.18850222743702e+000	2.95365376404872e+001	-1.79999207597549e+002
1.19124200802737e+000	2.95365376404963e+001	-1.79999232099604e+002
1.19398810446427e+000	2.95365376405372e+001	-1.79999256597588e+002
1.19674053130724e+000	2.95365376405767e+001	-1.79999281091631e+002
1.19949930314938e+000	2.95365376405812e+001	-1.79999305581863e+002
1.20226443461741e+000	2.95365376406176e+001	-1.79999330068412e+002
1.20503594037179e+000	2.95365376406526e+001	-1.79999354551410e+002
1.20781383510678e+000	2.95365376406860e+001	-1.79999379030985e+002
1.21059813355048e+000	2.95365376406844e+001	-1.79999403507268e+002
1.21338885046497e+000	2.95365376407148e+001	-1.79999427980389e+002
1.21618600064636e+000	2.95365376407437e+001	-1.79999452450477e+002
1.21898959892486e+000	2.95365376407376e+001	-1.79999476917662e+002
1.22179966016487e+000	2.95365376407635e+001	-1.79999501382073e+002
1.22461619926504e+000	2.95365376407879e+001	-1.79999525843841e+002
1.22743923115840e+000	2.95365376408107e+001	-1.79999550303095e+002
1.23026877081238e+000	2.95365376407986e+001	-1.79999574759965e+002
1.23310483322890e+000	2.95365376408184e+001	-1.79999599214580e+002
1.23594743344451e+000	2.95365376408368e+001	-1.79999623667070e+002
1.23879658653036e+000	2.95365376408202e+001	-1.79999648117565e+002
1.24165230759241e+000	2.95365376408355e+001	-1.79999672566194e+002
1.24451461177138e+000	2.95365376408493e+001	-1.79999697013087e+002
1.24738351424294e+000	2.95365376408282e+001	-1.79999721458374e+002
1.25025903021771e+000	2.95365376408390e+001	-1.79999745902184e+002
1.25314117494141e+000	2.95365376408483e+001	-1.79999770344647e+002
1.25602996369487e+000	2.95365376408226e+001	-1.79999794785892e+002
1.25892541179416e+000	2.95365376408289e+001	-1.79999819226049e+002
1.26182753459066e+000	2.95365376408337e+001	-1.79999843665248e+002
1.26473634747115e+000	2.95365376408370e+001	-1.79999868103618e+002
1.26765186585784e+000	2.95365376408054e+001	-1.79999892541289e+002
1.27057410520854e+000	2.95365376408056e+001	-1.79999916978389e+002
1.27350308101666e+000	2.95365376408044e+001	-1.79999941415050e+002
1.27643880881134e+000	2.95365376407682e+001	-1.79999965851400e+002
1.27938130415752e+000	2.95365376407640e+001	-1.79999990287569e+002
1.28233058265602e+000	2.95365376407583e+001	1.79999985276313e+002
1.28528665994361e+000	2.95365376407176e+001	1.79999960840118e+002
1.28824955169313e+000	2.95365376407089e+001	1.79999936403715e+002
1.29121927361353e+000	2.95365376406986e+001	1.79999911966974e+002
1.29419584144998e+000	2.95365376406534e+001	1.79999887529767e+002
1.29717927098395e+000	2.95365376406402e+001	1.79999863091964e+002
1.30016957803328e+000	2.95365376406254e+001	1.79999838653434e+002
1.30316677845229e+000	2.95365376405757e+001	1.79999814214050e+002
1.30617088813183e+000	2.95365376405580e+001	1.79999789773680e+002
1.30918192299940e+000	2.95365376405387e+001	1.79999765332196e+002
1.31219989901920e+000	2.95365376404845e+001	1.79999740889467e+002
1.31522483219223e+000	2.95365376404622e+001	1.79999716445365e+002
1.31825673855640e+000	2.95365376404384e+001	1.79999691999759e+002
1.32129563418657e+000	2.95365376403797e+001	1.79999667552520e+002
1.32434153519466e+000	2.95365376403529e+001	1.79999643103519e+002
1.32739445772973e+000	2.95365376402911e+001	1.79999618652626e+002
1.33045441797808e+000	2.95365376402613e+001	1.79999594199710e+002
1.33352143216332e+000	2.95365376401965e+001	1.79999569744643e+002
1.33659551654643e+000	2.95365376401637e+001	1.79999545287295e+002
1.33967668742593e+000	2.95365376401293e+001	1.79999520827536e+002
1.34276496113786e+000	2.95365376400600e+001	1.79999496365237e+002
1.34586035405594e+000	2.95365376400226e+001	1.79999471900267e+002
1.34896288259164e+000	2.95365376399837e+001	1.79999447432498e+002
1.35207256319427e+000	2.95365376399099e+001	1.79999422961799e+002
1.35518941235103e+000	2.95365376398680e+001	1.79999398488040e+002
1.35831344658715e+000	2.95365376397911e+001	1.79999374011092e+002
1.36144468246594e+000	2.95365376397461e+001	1.79999349530825e+002
1.36458313658892e+000	2.95365376396997e+001	1.79999325047110e+002
1.36772882559584e+000	2.95365376396182e+001	1.79999300559816e+002
1.37088176616484e+000	2.95365376395687e+001	1.79999276068814e+002
1.37404197501251e+000	2.95365376395177e+001	1.79999251573973e+002
1.37720946889394e+000	2.95365376394317e+001	1.79999227075165e+002
1.38038426460288e+000	2.95365376393776e+001	1.79999202572258e+002
1.38356637897177e+000	2.95365376393220e+001	1.79999178065123e+002
1.38675582887188e+000	2.95365376392314e+001	1.79999153553631e+002
1.38995263121334e+000	2.95365376391728e+001	1.79999129037651e+002
1.39315680294529e+000	2.95365376390792e+001	1.79999104517053e+002
1.39636836105593e+000	2.95365376390175e+001	1.79999079991708e+002
1.39958732257261e+000	2.95365376389542e+001	1.79999055461484e+002
1.40281370456195e+000	2.95365376388560e+001	1.79999030926253e+002
1.40604752412990e+000	2.95365376387897e+001	1.79999006385884e+002
1.40928879842186e+000	2.95365376386884e+001	1.79998981840247e+002
1.41253754462274e+000	2.95365376386190e+001	1.79998957289211e+002
1.41579377995707e+000	2.95365376385481e+001	1.79998932732648e+002
1.41905752168908e+000	2.95365376384422e+001	1.79998908170425e+002
1.42232878712281e+000	2.95365376383682e+001	1.79998883602414e+002
1.42560759360218e+000	2.95365376382593e+001	1.79998859028484e+002
1.42889395851109e+000	2.95365376381822e+001	1.79998834448505e+002
1.43218789927353e+000	2.95365376381035e+001	1.79998809862346e+002
1.43548943335364e+000	2.95365376379899e+001	1.79998785269877e+002
1.43879857825583e+000	2.95365376378998e+001	1.79998760670967e+002
1.44211535152486e+000	2.95365376377831e+001	1.79998736065487e+002
1.44543977074592e+000	2.95365376376983e+001	1.79998711453306e+002
1.44877185354475e+000	2.95365376376119e+001	1.79998686834293e+002
1.45211161758773e+000	2.95365376374906e+001	1.79998662208317e+002
1.45545908058195e+000	2.95365376374011e+001	1.79998637575249e+002
1.45881426027534e+000	2.95365376372766e+001	1.79998612934957e+002
1.46217717445671e+000	2.95365376371840e+001	1.79998588287311e+002
1.46554784095590e+000	2.95365376370563e+001	1.79998563632181e+002
1.46892627764385e+000	2.95365376369606e+001	1.79998538969435e+002
1.47231250243271e+000	2.95365376368633e+001	1.79998514298942e+002
1.47570653327588e+000	2.95365376367310e+001	1.79998489620573e+002
1.47910838816819e+000	2.95365376366305e+001	1.79998464934196e+002
1.48251808514594e+000	2.95365376364951e+001	1.79998440239680e+002
1.48593564228699e+000	2.95365376363915e+001	1.79998415536894e+002
1.48936107771090e+000	2.95365376362528e+001	1.79998390825708e+002
1.49279440957898e+000	2.95365376361461e+001	1.79998366105990e+002
1.49623565609442e+000	2.95365376360377e+001	1.79998341377609e+002
1.49968483550236e+000	2.95365376358944e+001	1.79998316640434e+002
1.50314196609001e+000	2.95365376357828e+001	1.79998291894335e+002
1.50660706618673e+000	2.95365376356363e+001	1.79998267139179e+002
1.51008015416413e+000	2.95365376355216e+001	1.79998242374835e+002
1.51356124843619e+000	2.95365376353719e+001	1.79998217601173e+002
1.51705036745932e+000	2.95365376352540e+001	1.79998192818061e+002
1.52054752973248e+000	2.95365376351011e+001	1.79998168025368e+002
1.52405275379728e+000	2.95365376349800e+001	1.79998143222961e+002
1.52756605823806e+000	2.95365376348238e+001	1.79998118410710e+002
1.53108746168202e+000	2.95365376346995e+001	1.79998093588483e+002
1.53461698279928e+000	2.95365376345736e+001	1.79998068756148e+002
1.53815464030302e+000	2.95365376344127e+001	1.79998043913574e+002
1.54170045294954e+000	2.95365376342835e+001	1.79998019060630e+002
1.54525443953840e+000	2.95365376341193e+001	1.79997994197182e+002
1.54881661891247e+000	2.95365376339870e+001	1.79997969323100e+002
1.55238700995807e+000	2.95365376338195e+001	1.79997944438251e+002
1.55596563160506e+000	2.95365376336839e+001	1.79997919542504e+002
1.55955250282694e+000	2.95365376335132e+001	1.79997894635727e+002
1.56314764264094e+000	2.95365376333743e+001	1.79997869717787e+002
1.56675107010813e+000	2.95365376332003e+001	1.79997844788553e+002
1.57036280433354e+000	2.95365376330247e+001	1.79997819847892e+002
1.57398286446620e+000	2.95365376328809e+001	1.79997794895672e+002
1.57761126969933e+000	2.95365376327020e+001	1.79997769931760e+002
1.58124803927037e+000	2.95365376325549e+001	1.79997744956025e+002
1.58489319246110e+000	2.95365376323727e+001	1.79997719968335e+002
1.58854674859776e+000	2.95365376322224e+001	1.79997694968555e+002
1.59220872705115e+000	2.95365376320369e+001	1.79997669956555e+002
1.59587914723672e+000	2.95365376318831e+001	1.79997644932201e+002
1.59955802861465e+000	2.95365376316943e+001	1.79997619895360e+002
1.60324539069002e+000	2.95365376315373e+001	1.79997594845901e+002
1.60694125301286e+000	2.95365376313451e+001	1.79997569783689e+002
1.61064563517825e+000	2.95365376311847e+001	1.79997544708593e+002
1.61435855682647e+000	2.95365376309892e+001	1.79997519620479e+002
1.61808003764305e+000	2.95365376308255e+001	1.79997494519215e+002
1.62181009735891e+000	2.95365376306266e+001	1.79997469404666e+002
1.62554875575047e+000	2.95365376304595e+001	1.79997444276701e+002
1.62929603263970e+000	2.95365376302573e+001	1.79997419135186e+002
1.63305194789432e+000	2.95365376300868e+001	1.79997393979986e+002
1.63681652142779e+000	2.95365376298811e+001	1.79997368810971e+002
1.64058977319952e+000	2.95365376296738e+001	1.79997343628004e+002
1.64437172321491e+000	2.95365376294982e+001	1.79997318430954e+002
1.64816239152549e+000	2.95365376292874e+001	1.79997293219687e+002
1.65196179822900e+000	2.95365376290750e+001	1.79997267994069e+002
1.65576996346951e+000	2.95365376288942e+001	1.79997242753965e+002
1.65958690743754e+000	2.95365376286783e+001	1.79997217499243e+002
1.66341265037015e+000	2.95365376284941e+001	1.79997192229769e+002
1.66724721255104e+000	2.95365376282748e+001	1.79997166945408e+002
1.67109061431069e+000	2.95365376280871e+001	1.79997141646026e+002
1.67494287602642e+000	2.95365376278559e+001	1.79997116331490e+002
1.67880401812254e+000	2.95365376276648e+001	1.79997091001665e+002
1.68267406107045e+000	2.95365376274385e+001	1.79997065656416e+002
1.68655302538872e+000	2.95365376272105e+001	1.79997040295610e+002
1.69044093164324e+000	2.95365376270141e+001	1.79997014919112e+002
1.69433780044731e+000	2.95365376267825e+001	1.79996989526787e+002
1.69824365246172e+000	2.95365376265827e+001	1.79996964118501e+002
1.70215850839493e+000	2.95365376263476e+001	1.79996938694120e+002
1.70608238900310e+000	2.95365376261442e+001	1.79996913253507e+002
1.71001531509027e+000	2.95365376259055e+001	1.79996887796529e+002
1.71395730750840e+000	2.95365376256651e+001	1.79996862323050e+002
1.71790838715757e+000	2.95365376254564e+001	1.79996836832935e+002
1.72186857498599e+000	2.95365376252124e+001	1.79996811326050e+002
1.72583789199018e+000	2.95365376250001e+001	1.79996785802259e+002
1.72981635921508e+000	2.95365376247525e+001	1.79996760261426e+002
1.73380399775412e+000	2.95365376245366e+001	1.79996734703417e+002
1.73780082874935e+000	2.95365376242854e+001	1.79996709128095e+002
1.74180687339159e+000	2.95365376240324e+001	1.79996683535326e+002
1.74582215292048e+000	2.95365376238111e+001	1.79996657924973e+002
1.74984668862464e+000	2.95365376235545e+001	1.79996632296900e+002
1.75388050184174e+000	2.95365376233295e+001	1.79996606650972e+002
1.75792361395867e+000	2.95365376230692e+001	1.79996580987053e+002
1.76197604641161e+000	2.95365376228071e+001	1.79996555305007e+002
1.76603782068614e+000	2.95365376225767e+001	1.79996529604698e+002
1.77010895831740e+000	2.95365376223109e+001	1.79996503885988e+002
1.77418948089014e+000	2.95365376220432e+001	1.79996478148743e+002
1.77827941003890e+000	2.95365376217738e+001	1.79996452392825e+002
1.78237876744807e+000	2.95365376215359e+001	1.79996426618098e+002
1.78648757485203e+000	2.95365376212627e+001	1.79996400824426e+002
1.79060585403527e+000	2.95365376209876e+001	1.79996375011671e+002
1.79473362683250e+000	2.95365376207441e+001	1.79996349179696e+002
1.79887091512876e+000	2.95365376204653e+001	1.79996323328366e+002
1.80301774085955e+000	2.95365376201846e+001	1.79996297457542e+002
1.80717412601090e+000	2.95365376199355e+001	1.79996271567087e+002
1.81134009261958e+000	2.95365376196510e+001	1.79996245656865e+002
1.81551566277311e+000	2.95365376193981e+001	1.79996219726737e+002
1.81970085860996e+000	2.95365376191098e+001	1.79996193776567e+002
1.82389570231961e+000	2.95365376188196e+001	1.79996167806217e+002
1.82810021614272e+000	2.95365376185609e+001	1.79996141815549e+002
1.83231442237119e+000	2.95365376182669e+001	1.79996115804425e+002
1.83653834334832e+000	2.95365376179710e+001	1.79996089772707e+002
1.84077200146893e+000	2.95365376177065e+001	1.79996063720258e+002
1.84501541917945e+000	2.95365376174067e+001	1.79996037646939e+002
1.84926861897805e+000	2.95365376171049e+001	1.79996011552612e+002
1.85353162341479e+000	2.95365376168346e+001	1.79995985437139e+002
1.85780445509167e+000	2.95365376165290e+001	1.79995959300381e+002
1.86208713666284e+000	2.95365376162213e+001	1.79995933142199e+002
1.86637969083464e+000	2.95365376159117e+001	1.79995906962456e+002
1.87068214036577e+000	2.95365376156336e+001	1.79995880761011e+002
1.87499450806739e+000	2.95365376153201e+001	1.79995854537727e+002
1.87931681680324e+000	2.95365376150045e+001	1.79995828292464e+002
1.88364908948977e+000	2.95365376147121e+001	1.79995802025083e+002
1.88799134909627e+000	2.95365376143926e+001	1.79995775735445e+002
1.89234361864495e+000	2.95365376140711e+001	1.79995749423410e+002
1.89670592121112e+000	2.95365376137476e+001	1.79995723088839e+002
1.90107827992327e+000	2.95365376134220e+001	1.79995696731592e+002
1.90546071796322e+000	2.95365376131279e+001	1.79995670351530e+002
1.90985325856621e+000	2.95365376127983e+001	1.79995643948512e+002
1.91425592502106e+000	2.95365376124667e+001	1.79995617522399e+002
1.91866874067026e+000	2.95365376121331e+001	1.79995591073051e+002
1.92309172891013e+000	2.95365376118308e+001	1.79995564600327e+002
1.92752491319091e+000	2.95365376114930e+001	1.79995538104086e+002
1.93196831701690e+000	2.95365376111532e+001	1.79995511584190e+002
1.93642196394658e+000	2.95365376108448e+001	1.79995485040496e+002
1.94088587759275e+000	2.95365376105009e+001	1.79995458472864e+002
1.94536008162263e+000	2.95365376101548e+001	1.79995431881154e+002
1.94984459975802e+000	2.95365376098067e+001	1.79995405265224e+002
1.95433945577537e+000	2.95365376094899e+001	1.79995378624933e+002
1.95884467350596e+000	2.95365376091376e+001	1.79995351960140e+002
1.96336027683602e+000	2.95365376087832e+001	1.79995325270703e+002
1.96788628970682e+000	2.95365376084267e+001	1.79995298556482e+002
1.97242273611482e+000	2.95365376080681e+001	1.79995271817334e+002
1.97696964011183e+000	2.95365376077408e+001	1.79995245053117e+002
1.98152702580507e+000	2.95365376073779e+001	1.79995218263691e+002
1.98609491735734e+000	2.95365376070128e+001	1.79995191448912e+002
1.99067333898716e+000	2.95365376066457e+001	1.79995164608638e+002
1.99526231496885e+000	2.95365376063098e+001	1.79995137742728e+002
